#     time          Mx           My           Mz      
#     (ns)         (1)          (1)          (1)     
           0       608112            0       608112
  5.5094e-15       608073      110.215       608151
 1.10188e-14       608034      220.422       608190
 2.03572e-14       607968      407.199       608256
 5.17072e-14       607745      1034.07       608477
 8.30572e-14       607521      1660.72       608698
 1.14407e-13       607296      2287.11       608919
 1.45757e-13       607070      2913.26       609139
  1.9536e-13       606712      3903.41       609487
 2.44962e-13       606350       4892.9       609833
 2.94564e-13       605987      5881.71       610179
 3.44167e-13       605621      6869.83       610525
 3.93769e-13       605253      7857.25       610869
 4.43372e-13       604882      8843.96       611212
 4.92974e-13       604510      9829.96       611555
 5.42576e-13       604135      10815.2       611896
 5.92179e-13       603757      11799.8       612237
 6.41781e-13       603378      12783.5       612577
 6.91383e-13       602996      13766.5       612916
 7.40986e-13       602612      14748.8       613255
 7.90588e-13       602226      15730.2       613592
 8.40191e-13       601837      16710.9       613929
 8.89793e-13       601446      17690.8       614265
 9.39395e-13       601053      18669.8       614600
 9.88998e-13       600658      19648.1       614934
  1.0386e-12       600260      20625.5       615268
  1.0882e-12       599861        21602       615601
 1.13781e-12       599459      22577.8       615933
 1.18741e-12       599055      23552.6       616264
 1.23701e-12       598648      24526.6       616595
 1.28661e-12       598240      25499.7       616924
 1.33621e-12       597829      26471.9       617253
  1.4111e-12       597205      27937.9       617749
 1.48598e-12       596575      29401.9       618242
 1.56086e-12       595941      30863.7       618734
 1.63575e-12       595302      32323.3       619224
 1.71063e-12       594658      33780.8       619713
 1.78551e-12       594009      35236.1       620200
 1.86039e-12       593355      36689.2       620686
 1.93528e-12       592697      38139.9       621170
 2.01016e-12       592033      39588.4       621652
 2.08504e-12       591365      41034.6       622133
 2.15992e-12       590692      42478.4       622613
 2.23481e-12       590014      43919.8       623091
 2.30969e-12       589331      45358.8       623568
 2.38457e-12       588644      46795.3       624043
 2.45946e-12       587951      48229.4       624517
 2.53434e-12       587255      49660.9       624989
 2.60922e-12       586553      51089.9       625460
  2.6841e-12       585847      52516.4       625930
 2.75899e-12       585136      53940.3       626398
 2.83387e-12       584420      55361.5       626865
 2.90875e-12       583700      56780.1       627331
 2.98363e-12       582975        58196       627795
 3.09723e-12       581867      60338.7       628498
 3.21082e-12       580748      62475.1       629197
 3.32441e-12       579619      64605.1       629893
   3.438e-12       578479      66728.6       630587
  3.5516e-12       577330      68845.5       631279
 3.66519e-12       576169      70955.7       631967
 3.77878e-12       574999      73059.2       632653
 3.89237e-12       573819      75155.8       633337
 4.00597e-12       572628      77245.5       634018
 4.11956e-12       571428      79328.2       634696
 4.23315e-12       570218      81403.8       635373
 4.34675e-12       568998      83472.2       636047
 4.46034e-12       567767      85533.3       636719
 4.57393e-12       566528        87587       637388
 4.68752e-12       565278      89633.4       638056
 4.80112e-12       564019      91672.2       638721
 4.91471e-12       562751      93703.5       639385
  5.0283e-12       561473      95727.1       640046
 5.14189e-12       560185        97743       640706
 5.25549e-12       558889      99751.1       641364
 5.36908e-12       557582       101751       642019
 5.48267e-12       556267       103744       642674
 5.59627e-12       554943       105728       643326
 5.70986e-12       553609       107704       643976
 5.82345e-12       552267       109672       644625
 5.93705e-12       550915       111632       645273
 6.05064e-12       549555       113583       645918
 6.16423e-12       548185       115526       646563
 6.27782e-12       546807       117461       647205
 6.39142e-12       545420       119387       647846
 6.50501e-12       544025       121305       648486
  6.6186e-12       542621       123214       649125
 6.73219e-12       541208       125115       649762
 6.84579e-12       539787       127006       650397
 6.95938e-12       538358       128889       651032
 7.12994e-12       536196       131700       651982
  7.3005e-12       534016       134490       652929
 7.47107e-12       531817       137260       653874
 7.64163e-12       529600       140009       654816
 7.81219e-12       527365       142738       655756
 7.98275e-12       525112       145446       656694
 8.15331e-12       522843       148133       657629
 8.32388e-12       520555       150799       658562
 8.49444e-12       518251       153443       659493
   8.665e-12       515930       156066       660422
 8.83556e-12       513592       158666       661349
 9.00613e-12       511238       161246       662274
 9.17669e-12       508867       163803       663198
 9.34725e-12       506481       166337       664119
 9.51781e-12       504079       168850       665039
 9.68838e-12       501661       171340       665957
 9.85894e-12       499228       173807       666873
 1.00295e-11       496780       176252       667788
 1.02001e-11       494317       178674       668701
 1.03706e-11       491839       181073       669613
 1.05412e-11       489347       183448       670523
 1.07118e-11       486841       185801       671432
 1.08823e-11       484321       188130       672339
 1.10529e-11       481787       190435       673245
 1.12234e-11       479239       192717       674150
  1.1394e-11       476678       194975       675053
 1.15646e-11       474104       197210       675954
 1.17351e-11       471517       199420       676855
 1.19057e-11       468917       201607       677753
 1.20763e-11       466305       203769       678651
 1.22468e-11       463680       205907       679547
 1.24174e-11       461044       208020       680441
 1.25879e-11       458396       210110       681334
 1.27585e-11       455736       212174       682226
 1.29291e-11       453065       214215       683116
 1.30996e-11       450383       216230       684005
 1.32702e-11       447690       218221       684892
 1.34407e-11       444986       220187       685778
 1.36113e-11       442272       222128       686662
 1.37819e-11       439548       224044       687544
 1.39524e-11       436814       225935       688425
  1.4123e-11       434070       227800       689304
 1.42936e-11       431317       229641       690181
 1.44641e-11       428555       231457       691057
 1.46347e-11       425783       233247       691931
 1.48052e-11       423003       235011       692803
 1.49758e-11       420214       236751       693673
 1.51464e-11       417417       238465       694541
 1.53169e-11       414613       240153       695407
 1.54875e-11       411800       241816       696272
  1.5658e-11       408980       243453       697134
 1.58286e-11       406152       245065       697994
 1.59992e-11       403318       246651       698852
 1.61697e-11       400476       248211       699707
 1.63403e-11       397629       249746       700561
 1.65109e-11       394775       251255       701412
 1.66814e-11       391915       252738       702260
  1.6852e-11       389049       254195       703107
 1.70226e-11       386177       255627       703950
 1.71931e-11       383301       257033       704791
 1.73637e-11       380419       258413       705630
 1.75342e-11       377533       259767       706466
 1.77048e-11       374642       261095       707299
 1.78754e-11       371747       262397       708129
 1.80459e-11       368848       263674       708957
 1.82165e-11       365945       264924       709781
 1.83871e-11       363039       266149       710603
 1.85576e-11       360130       267348       711422
 1.87282e-11       357218       268521       712237
 1.88987e-11       354303       269669       713050
 1.90693e-11       351386       270790       713859
 1.92399e-11       348467       271886       714665
 1.94104e-11       345545       272956       715468
  1.9581e-11       342623       274000       716268
 1.97515e-11       339699       275019       717064
 1.99221e-11       336774       276012       717856
 2.00927e-11       333848       276979       718646
 2.02632e-11       330921       277921       719431
 2.04338e-11       327995       278837       720213
 2.06044e-11       325068       279728       720992
 2.07749e-11       322142       280593       721767
 2.09455e-11       319216       281433       722538
  2.1116e-11       316291       282248       723305
 2.12866e-11       313368       283037       724069
 2.14572e-11       310445       283801       724829
 2.16277e-11       307525       284540       725585
 2.17983e-11       304606       285254       726337
 2.19689e-11       301689       285943       727085
 2.21394e-11       298775       286607       727830
   2.231e-11       295863       287246       728570
 2.24805e-11       292955       287860       729306
 2.26511e-11       290049       288450       730038
 2.28217e-11       287148       289014       730766
 2.29922e-11       284249       289555       731490
 2.31628e-11       281355       290071       732210
 2.33334e-11       278466       290562       732926
 2.35039e-11       275580       291030       733637
 2.36745e-11       272700       291473       734345
  2.3845e-11       269825       291892       735048
 2.40156e-11       266954       292287       735747
 2.41862e-11       264090       292658       736441
 2.43567e-11       261231       293006       737132
 2.45273e-11       258379       293330       737818
 2.46979e-11       255532       293630       738500
 2.48684e-11       252693       293907       739178
  2.5039e-11       249860       294161       739851
 2.52095e-11       247034       294392       740520
 2.53801e-11       244215       294600       741185
 2.55507e-11       241404       294785       741846
 2.57212e-11       238601       294947       742502
 2.58918e-11       235806       295086       743154
 2.60624e-11       233019       295203       743801
 2.62329e-11       230240       295298       744445
 2.64035e-11       227470       295371       745084
  2.6574e-11       224709       295421       745719
 2.67446e-11       221958       295450       746349
 2.69152e-11       219215       295457       746975
 2.70857e-11       216483       295443       747597
 2.72563e-11       213760       295407       748215
 2.74269e-11       211047       295349       748829
 2.75974e-11       208344       295271       749438
  2.7768e-11       205652       295172       750043
 2.79385e-11       202971       295052       750644
 2.81091e-11       200300       294911       751241
 2.82797e-11       197641       294750       751834
 2.84502e-11       194993       294569       752422
 2.86208e-11       192356       294368       753006
 2.87913e-11       189731       294147       753587
 2.89619e-11       187118       293906       754163
 2.91325e-11       184516       293645       754735
  2.9303e-11       181928       293366       755303
 2.94736e-11       179351       293067       755867
 2.96442e-11       176787       292749       756428
 2.98147e-11       174236       292412       756984
 2.99853e-11       171698       292057       757536
 3.01558e-11       169173       291683       758084
 3.03264e-11       166661       291291       758629
  3.0497e-11       164163       290881       759169
 3.06675e-11       161678       290453       759706
 3.09244e-11       157962       289775       760507
 3.11813e-11       154278       289058       761300
 3.14381e-11       150626       288302       762085
  3.1695e-11       147007       287509       762861
 3.19519e-11       143421       286678       763628
 3.22087e-11       139869       285810       764388
 3.24656e-11       136350       284907       765140
 3.27225e-11       132867       283968       765884
 3.29793e-11       129418       282995       766620
 3.32362e-11       126004       281988       767348
 3.34931e-11       122626       280948       768069
 3.37499e-11       119284       279875       768783
 3.40068e-11       115979       278771       769489
 3.42637e-11       112710       277636       770187
 3.45205e-11       109478       276471       770879
 3.47774e-11       106283       275276       771564
 3.50343e-11       103126       274053       772241
 3.52911e-11       100007       272801       772912
  3.5548e-11      96925.5       271523       773576
 3.58049e-11      93882.4       270217       774234
 3.60617e-11      90877.7       268886       774885
 3.63186e-11      87911.6       267530       775529
 3.65755e-11      84984.3       266149       776168
 3.68324e-11        82096       264745       776800
 3.70892e-11      79246.7       263318       777426
 3.73461e-11      76436.6       261868       778045
  3.7603e-11      73665.8       260397       778659
 3.78598e-11      70934.4       258905       779268
 3.81167e-11      68242.5       257393       779870
 3.83736e-11      65590.2       255861       780467
 3.86304e-11      62977.4       254311       781058
 3.88873e-11      60404.3       252743       781644
 3.91442e-11      57870.8       251158       782224
  3.9401e-11      55376.9       249555       782799
 3.96579e-11      52922.7       247937       783369
 3.99148e-11      50508.2       246304       783933
 4.01716e-11      48133.2       244656       784493
 4.04285e-11      45797.8       242994       785047
 4.06854e-11      43501.9       241319       785597
 4.09422e-11      41245.4       239632       786142
 4.11991e-11      39028.3       237932       786682
  4.1456e-11      36850.4       236221       787217
 4.17128e-11      34711.6       234500       787747
 4.19697e-11      32611.9       232768       788273
 4.22266e-11      30551.1       231027       788795
 4.24834e-11        28529       229277       789311
 4.27403e-11      26545.6       227520       789824
 4.29972e-11      24600.6       225754       790332
  4.3254e-11      22693.9       223982       790836
 4.35109e-11      20825.3       222203       791335
 4.37678e-11      18994.6       220419       791830
 4.40247e-11      17201.6       218629       792322
 4.42815e-11      15446.1       216835       792809
 4.45384e-11        13728       215037       793292
 4.47953e-11      12046.9       213236       793770
 4.50521e-11      10402.6       211431       794245
  4.5309e-11         8795       209624       794716
 4.55658e-11      7223.69       207815       795183
 4.58227e-11      5688.47       206005       795647
 4.60796e-11      4189.09       204195       796106
 4.63365e-11      2725.27       202383       796562
 4.65933e-11      1296.74       200573       797014
 4.68502e-11     -96.7794       198763       797462
 4.71071e-11     -1455.59       196954       797906
 4.73639e-11     -2780.01       195146       798347
 4.76208e-11     -4070.33       193342       798784
 4.78777e-11     -5326.85       191539       799218
 4.81345e-11     -6549.87       189740       799648
 4.83914e-11     -7739.73       187944       800075
 4.86483e-11     -8896.74       186153       800498
 4.89051e-11     -10021.2       184365       800918
  4.9162e-11     -11113.5       182583       801334
 4.94189e-11       -12174       180806       801747
 4.96757e-11       -13203       179035       802156
 4.99326e-11     -14200.8       177269       802563
 5.01895e-11     -15167.9       175510       802965
 5.04463e-11     -16104.5       173758       803365
 5.07032e-11       -17011       172014       803761
 5.09601e-11     -17887.8       170277       804154
 5.12169e-11     -18735.3       168547       804544
 5.14738e-11     -19553.8       166827       804930
 5.17307e-11     -20343.6       165114       805314
 5.19875e-11     -21105.2       163411       805694
 5.22444e-11     -21838.9       161717       806071
 5.25013e-11     -22545.2       160033       806445
 5.27581e-11     -23224.3       158359       806816
  5.3015e-11     -23876.7       156695       807184
 5.32719e-11     -24502.7       155041       807548
 5.35288e-11     -25102.8       153399       807910
 5.37856e-11     -25677.4       151767       808269
 5.40425e-11     -26226.7       150147       808624
 5.42994e-11     -26751.3       148539       808977
 5.45562e-11     -27251.5       146943       809327
 5.48131e-11     -27727.6       145358       809674
   5.507e-11     -28180.2       143786       810017
 5.53268e-11     -28609.5       142227       810358
 5.55837e-11       -29016       140681       810697
 5.58406e-11     -29400.1       139147       811032
 5.60974e-11     -29762.1       137627       811364
 5.63543e-11     -30102.5       136121       811694
 5.66112e-11     -30421.7       134628       812021
  5.6868e-11       -30720       133149       812345
 5.71249e-11     -30997.8       131684       812666
 5.73818e-11     -31255.5       130233       812984
 5.76386e-11     -31493.5       128797       813300
 5.78955e-11     -31712.3       127375       813613
 5.81524e-11     -31912.2       125968       813924
 5.84092e-11     -32093.5       124576       814231
 5.86661e-11     -32256.8       123199       814537
  5.8923e-11     -32402.3       121837       814839
 5.91798e-11     -32530.4       120490       815139
 5.94367e-11     -32641.6       119159       815436
 5.96936e-11     -32736.3       117843       815731
 5.99504e-11     -32814.7       116543       816023
 6.02073e-11     -32877.4       115258       816313
 6.04642e-11     -32924.5       113989       816600
  6.0721e-11     -32956.7       112736       816884
 6.09779e-11     -32974.2       111499       817166
 6.12348e-11     -32977.3       110278       817446
 6.14917e-11     -32966.5       109072       817723
 6.17485e-11     -32942.2       107883       817998
 6.20054e-11     -32904.7       106711       818270
 6.22623e-11     -32854.3       105554       818540
 6.25191e-11     -32791.4       104414       818808
  6.2776e-11     -32716.5       103290       819073
 6.30329e-11     -32629.8       102182       819336
 6.32897e-11     -32531.6       101091       819596
 6.35466e-11     -32422.5       100016       819855
 6.38035e-11     -32302.6      98957.4       820111
 6.40603e-11     -32172.4      97915.1       820364
 6.43172e-11     -32032.1      96889.3       820616
 6.45741e-11     -31882.2      95879.9       820865
 6.48309e-11       -31723      94886.9       821112
 6.50878e-11     -31554.7      93910.2       821357
 6.53447e-11     -31377.8      92949.8       821600
 6.56015e-11     -31192.5      92005.8       821841
 6.58584e-11     -30999.3        91078       822079
 6.61153e-11     -30798.3      90166.5       822315
 6.63721e-11       -30590      89271.2       822549
  6.6629e-11     -30374.5        88392       822782
 6.68859e-11     -30152.4        87529       823012
 6.71427e-11     -29923.8      86682.1       823240
 6.73996e-11       -29689      85851.1       823465
 6.76565e-11     -29448.5        85036       823689
 6.79133e-11     -29202.3      84236.9       823911
 6.81702e-11     -28950.9      83453.5       824131
 6.84271e-11     -28694.6      82685.8       824349
 6.86839e-11     -28433.5      81933.8       824565
 6.89408e-11     -28168.1      81197.4       824780
 6.91977e-11     -27898.6      80476.5       824992
 6.94546e-11     -27625.2      79770.9       825202
 6.97114e-11     -27348.3      79080.6       825410
 6.99683e-11       -27068      78405.5       825617
 7.02252e-11     -26784.8      77745.5       825822
